ph_8_53,,
Wavelength (nm),Intensity (a.u.),
500,33.85441208,
501.0400085,32.59593964,
501.9400024,31.47343254,
502.980011,31.78745461,
504.019989,30.83985519,
505.0700073,30.07244492,
505.9700012,30.0328331,
507.0100098,29.50658798,
508.0499878,28.74622154,
508.9500122,28.84962273,
510,29.31075478,
511.0400085,28.51972008,
511.9400024,28.33802414,
512.9799805,27.37926292,
514.0200195,26.73129082,
515.0700073,27.24872971,
515.9699707,26.76026154,
517.0100098,27.06464958,
518.0499878,26.83920097,
518.9500122,25.72476387,
520,25.69448853,
521.039978,25.02414703,
521.9400024,25.58320045,
522.9799805,25.3443985,
524.0200195,25.50617027,
525.0700073,25.00293159,
525.9699707,24.74677658,
527.0100098,24.63341522,
528.0499878,24.42964363,
528.9500122,24.09454155,
530,24.04396629,
531.039978,22.98809052,
531.9400024,22.22862434,
532.9799805,23.12326622,
534.0200195,21.83548164,
535.0700073,21.84858704,
535.9699707,20.93422127,
537.0100098,20.74382973,
538.0499878,19.28951073,
538.9500122,20.02507591,
540,19.02805901,
541.0200195,18.77376747,
542.0499878,18.28857613,
542.9400024,18.69769669,
543.9699707,17.44360352,
545,17.42058754,
546.0200195,16.44310951,
547.0499878,16.25424194,
547.9400024,16.21045494,
548.9699707,15.51901913,
550,14.7880764,
551.039978,14.51161289,
551.9400024,14.46067047,
552.9799805,14.01907253,
554.0200195,14.10172653,
555.0700073,13.76503658,
555.9699707,13.04714584,
557.0100098,13.34340572,
558.0499878,13.5779953,
558.9500122,13.72908115,
560,14.31906033,
561.0200195,14.62047195,
562.0499878,15.05103207,
562.9400024,15.14368343,
563.9699707,15.09016705,
565,15.59588718,
566.0200195,15.84866047,
567.0499878,16.16023254,
567.9400024,15.89942169,
568.9699707,15.61363029,
570,15.47993279,
571.0200195,14.9907093,
572.0499878,14.24827003,
572.9400024,13.87984085,
573.9699707,13.10747433,
575,12.24198627,
576.0200195,11.65411186,
577.0499878,10.74609089,
577.9400024,10.16892147,
578.9699707,9.853859901,
580,8.968287468,
581.0200195,8.761258125,
582.0499878,8.640892982,
582.9400024,8.099615097,
583.9699707,7.972429276,
585,7.660660744,
586.0200195,7.790000916,
587.0499878,7.689831257,
587.9400024,7.092198372,
588.9699707,7.497784138,
590,7.188353062,
591.0200195,7.498944759,
592.0499878,7.72578001,
592.9400024,7.050079823,
593.9699707,7.057536602,
595,6.883615971,
596.0200195,6.979072094,
597.0499878,6.8359375,
597.9400024,6.650419712,
598.9699707,6.646938801,
600,6.756331921,
601.0200195,6.489691257,
602.0499878,6.275597095,
602.9400024,6.570808411,
603.9699707,5.993142605,
605,6.009045124,
606.0200195,5.982345104,
607.0499878,6.245284557,
607.9400024,6.195660114,
608.9699707,5.777827263,
610,5.526516438,
611.0100098,5.846042156,
612.0200195,5.810333729,
613.039978,5.909603596,
614.0499878,5.677306175,
615.0700073,5.549161434,
615.9400024,5.427421093,
616.9500122,5.514689445,
617.9699707,5.454927921,
618.9799805,5.448541641,
620,5.353309155,
621.0100098,5.465734005,
622.0200195,5.495788574,
623.039978,5.48253727,
624.0499878,5.365731716,
625.0700073,5.631550789,
625.9400024,5.605853081,
626.9500122,5.668934345,
627.9699707,5.610876083,
628.9799805,5.448977947,
630,5.447969437,
631.0100098,5.909205437,
632.0200195,5.837244987,
633.039978,6.103985786,
634.0499878,5.873001575,
635.0700073,6.007541656,
635.9400024,6.260305405,
636.9500122,6.776553631,
637.9699707,6.902865887,
638.9799805,7.250315666,
640,7.485996723,
641.0100098,8.147211075,
642.0200195,8.73418045,
643.039978,9.458289146,
644.0499878,10.35243416,
645.0700073,10.99866104,
645.9400024,12.09335136,
646.9500122,13.06735134,
647.9699707,14.59999084,
648.9799805,16.55592918,
650,18.8989315,
651.0100098,21.27736282,
652.0200195,24.03572464,
653.039978,27.80105209,
654.0499878,32.378479,
655.0700073,37.61942291,
655.9400024,42.30979156,
656.9500122,48.21744919,
657.9699707,55.35358429,
658.9799805,62.96309662,
660,73.97120667,
661,85.12982178,
662,98.72975159,
663,112.6941528,
664,128.5305328,
665,143.8267822,
666,159.9105225,
667,180.0829926,
668,201.006546,
669,221.2567291,
670,241.1691742,
671,260.5655823,
672,280.3399658,
673,297.6803284,
674,308.5412292,
675,322.695343,
676,332.960083,
677,344.288208,
678,346.8422241,
679,349.9488525,
680,350.3716736,
681,347.4898376,
682,342.0881042,
683,335.1665955,
684,329.3156738,
685,320.6564636,
686,308.3476257,
687,297.2640381,
688,290.3365479,
689,281.0033569,
690,271.8844604,
691,262.6578979,
692,254.8618011,
693,244.8186646,
694,234.7040405,
695,229.3631439,
696,220.9229126,
697,214.5822296,
698,209.0944672,
699,203.8906555,
700,196.7612152,
700.9799805,188.3791199,
701.9699707,181.6087036,
702.9500122,175.8656464,
703.9400024,171.0797729,
705.0700073,165.2308807,
706.0499878,159.6104736,
707.039978,155.3267365,
708.0200195,149.8626099,
709.0100098,144.2491302,
710,140.8809052,
711,137.2284393,
712,133.6193542,
713,130.2781372,
714,124.8560867,
715,122.7196884,
716,119.2977524,
717,117.0364838,
718,113.4087219,
719,110.8199921,
720,110.6281052,
720.9799805,108.7431564,
721.9699707,106.2154007,
722.9500122,105.8643494,
723.9400024,103.5730057,
725.0700073,102.3379745,
726.0499878,101.426033,
727.039978,98.97054291,
728.0200195,97.29621124,
729.0100098,95.05876923,
730,94.32749939,
730.9699707,93.38924408,
731.9400024,91.70467377,
733.0499878,91.07387543,
734.0200195,88.84092712,
735,87.02405548,
735.9699707,85.95490265,
736.9400024,83.80000305,
738.0499878,82.94172668,
739.0200195,80.01192474,
740,77.52446747,
740.9799805,75.55447388,
741.9699707,75.20467377,
742.9500122,73.41181183,
743.9400024,71.29813385,
745.0700073,70.80464172,
746.0499878,68.60401917,
747.039978,67.04525757,
748.0200195,64.8423996,
749.0100098,63.1509285,
750,61.89512253,
750.9699707,60.87735748,
751.9400024,58.71623611,
753.0499878,56.83295059,
754.0200195,55.48320389,
755,53.58127213,
755.9699707,51.7000351,
756.9400024,51.15516281,
758.0499878,48.54821777,
759.0200195,47.23747635,
760,45.63412857,
760.9699707,44.75101089,
761.9400024,42.86849594,
763.0499878,41.86981964,
764.0200195,40.52526474,
765,38.39995575,
765.9699707,37.31974411,
766.9400024,37.01186371,
768.0499878,34.99471664,
769.0200195,33.75064087,
770,32.13430023,
770.9699707,31.46284866,
771.9400024,30.49012375,
773.0499878,29.45726585,
774.0200195,28.35756874,
775,27.23316383,
775.9699707,26.24123192,
776.9400024,25.42426491,
778.0499878,24.97720146,
779.0200195,23.66514587,
780,23.03775024,
780.9500122,23.05107307,
782.0499878,22.38785934,
783.0100098,21.24032784,
783.9699707,21.22808838,
785.0599976,20.33774376,
786.0200195,19.97242737,
786.9799805,19.44076538,
787.9400024,19.05158615,
789.039978,18.88621521,
790,18.17399216,
790.9500122,18.18705368,
792.0499878,18.04750824,
793.0100098,17.46272087,
793.9699707,17.39704514,
795.0599976,17.12592506,
796.0200195,17.16050529,
796.9799805,16.47160339,
797.9400024,16.49287987,
799.039978,16.29708099,
800,15.87343788,

